Time(s),Speed(km/h),Acceleration(m/s²)
0,0,0
10,25,2.5
20,50,2.5
30,75,2.5
40,100,2.5
50,125,2.5
60,150,2.5
70,125,-2.5
80,100,-2.5
90,75,-2.5
100,50,-2.5
110,25,-2.5
120,0,-2.5
130,0,0
140,20,2.0
150,40,2.0
160,60,2.0
170,80,2.0
180,60,-2.0
190,40,-2.0
200,20,-2.0
210,0,-2.0

